 t        y1(t)        y2(t)
0.0     0.000000     2.000000
0.1     0.715719     1.955318
0.2     1.233158     1.958280
0.3     1.714322     2.067201
0.4     2.167980     2.279421
0.5     2.584106     2.581860
0.6     2.954249     2.959783
0.7     3.273589     3.398622
0.8     3.540046     3.884333
0.9     3.753263     4.403443
1.0     3.913866     4.943020
1.1     4.022979     5.490606
1.2     4.081890     6.034129
1.3     4.091803     6.561794
1.4     4.053642     7.061937
1.5     3.967848     7.522825
1.6     3.834134     7.932390
1.7     3.651144     8.277834
1.8     3.415900     8.545020
1.9     3.122871     8.717503
2.0     2.762276     8.774849
2.1     2.317112     8.689753
2.2     1.760225     8.424327
2.3     1.084461     7.944549
2.4     0.549717     7.373549
2.5     0.417855     6.923107
2.6     0.422100     6.529244
2.7     0.450592     6.152316
2.8     0.487134     5.787620
2.9     0.530360     5.436220
3.0     0.581321     5.100419
3.1     0.641828     4.783269
3.2     0.714253     4.488625
3.3     0.801509     4.221271
3.4     0.906906     3.986977
3.5     1.033724     3.792329
3.6     1.184367     3.644214
3.7     1.359216     3.548878
3.8     1.555670     3.510818
3.9     1.768014     3.531932
4.0     1.988306     3.611267
4.1     2.207781     3.745348
4.2     2.418127     3.928767
4.3     2.612243     4.154781
4.4     2.784498     4.415790
4.5     2.930672     4.703669
4.6     3.047741     5.009990
4.7     3.133617     5.326157
4.8     3.186894     5.643483
4.9     3.206624     5.953220
5.0     3.192116     6.246545
5.1     3.142751     6.514516
5.2     3.057809     6.747972
5.3     2.936280     6.937395
5.4     2.776645     7.072707
5.5     2.576644     7.142989
5.6     2.333069     7.136167
5.7     2.041974     7.038894
5.8     1.700961     6.837704
5.9     1.320093     6.525895
6.0     0.954931     6.126741
6.1     0.715373     5.712509
6.2     0.631771     5.336576
6.3     0.637133     4.996675
6.4     0.683036     4.684001
6.5     0.752509     4.397668
6.6     0.841947     4.141165
6.7     0.952329     3.920044
6.8     1.085809     3.740882
6.9     1.243824     3.610382
7.0     1.425631     3.534272
7.1     1.627462     3.516215
7.2     1.842693     3.557135
7.3     2.062957     3.655185
7.4     2.279548     3.806186
7.5     2.484525     4.004244
7.6     2.671287     4.242306
7.7     2.834700     4.512588
7.8     2.970977     4.806862
7.9     3.077434     5.116652
8.0     3.152235     5.433342
8.1     3.194148     5.748239
8.2     3.202327     6.052588
8.3     3.176122     6.337547
8.4     3.114898     6.594125
8.5     3.017858     6.813077
8.6     2.883848     6.984739
8.7     2.711135     7.098800
8.8     2.497171     7.144016
8.9     2.238457     7.107910
9.0     1.931156     6.976889
9.1     1.575123     6.738542
9.2     1.190832     6.392686
9.3     0.856827     5.979743
9.4     0.674137     5.576475
9.5     0.628237     5.214323
9.6     0.650544     4.884384
9.7     0.705362     4.580705
9.8     0.781763     4.304286
9.9     0.878249     4.059480
10.0     0.996437     3.852286
10.1     1.138402     3.689435
10.2     1.304957     3.577419
10.3     1.494346     3.521353
10.4     1.701723     3.523985
10.5     1.919696     3.585244
10.6     2.139627     3.702400
10.7     2.352978     3.870605
10.8     2.552240     4.083502
10.9     2.731326     4.333741
11.0     2.885598     4.613356
11.1     3.011684     4.914017
11.2     3.107226     5.227187
11.3     3.170625     5.544221
11.4     3.200809     5.856405
11.5     3.197019     6.154958
11.6     3.158631     6.430996
11.7     3.084975     6.675453
11.8     2.975151     6.878959
11.9     2.827830     7.031655
12.0     2.641021     7.122939
12.1     2.411842     7.141163
12.2     2.136527     7.073399
12.3     1.811721     6.905976
12.4     1.441406     6.628696
12.5     1.062006     6.251779
12.6     0.773456     5.834175
12.7     0.646441     5.445177
12.8     0.630915     5.095556
12.9     0.666942     4.775044
13.0     0.729868     4.480576
13.1     0.813238     4.214631
13.2     0.917078     3.982266
13.3     1.043392     3.789833
13.4     1.193990     3.644101
13.5     1.368903     3.551211
13.6     1.565297     3.515541
13.7     1.777322     3.538868
13.8     1.996985     3.620145
13.9     2.215543     3.755829
14.0     2.424742     3.940476
14.1     2.617551     4.167331
14.2     2.788400     4.428792
14.3     2.933123     4.716742
14.4     3.048730     5.022764
14.5     3.133160     5.338276
14.6     3.185023     5.654605
14.7     3.203378     5.963016
14.8     3.187536     6.254697
14.9     3.136875     6.520714
15.0     3.050666     6.751909
15.1     2.927884     6.938766
15.2     2.766995     7.071197
15.3     2.565719     7.138270
15.4     2.320834     7.127901
15.5     2.028435     7.026755
15.6     1.686379     6.821517
15.7     1.305737     6.506158
15.8     0.944326     6.105660
15.9     0.711377     5.692898
16.0     0.632213     5.318803
16.1     0.639530     4.980264
16.2     0.686481     4.668851
16.3     0.756827     4.383924
16.4     0.847206     4.129085
16.5     0.958665     3.909948
16.6     1.093343     3.733116
16.7     1.252589     3.605267
16.8     1.435514     3.532049
16.9     1.638187     3.516995
17.0     1.853867     3.560885
17.1     2.074134     3.661740
17.2     2.290300     3.815279
17.3     2.494482     4.015536
17.4     2.680155     4.255414
17.5     2.842259     4.527099
17.6     2.977066     4.822350
17.7     3.081945     5.132679
17.8     3.155094     5.449468
17.9     3.195307     5.764020
18.0     3.201751     6.067577
18.1     3.173781     6.351291
18.2     3.110758     6.606163
18.3     3.011872     6.822930
18.4     2.875945     6.991901
18.5     2.701210     7.102729
18.6     2.485070     7.144110
18.7     2.223985     7.103503
18.8     1.914155     6.967288
18.9     1.555899     6.723287
19.0     1.171657     6.372570
19.1     0.843436     5.958308
19.2     0.669168     5.556982
19.3     0.628215     5.196754
19.4     0.652734     4.868224
19.5     0.708791     4.565875
19.6     0.786210     4.290949
19.7     0.883754     4.047912
19.8     1.003111     3.842822
19.9     1.146332     3.682421
20.0     1.314123     3.573160
20.1     1.504575     3.520054
20.2     1.712690     3.525712
20.3     1.930977     3.589918
20.4     2.150772     3.709819
20.5     2.363573     3.880475
20.6     2.561937     4.095466
20.7     2.739854     4.347405
20.8     2.892756     4.628301
20.9     3.017328     4.929810
21.0     3.111259     5.243388
21.1     3.172982     5.560386
21.2     3.201443     5.872086
21.3     3.195898     6.169703
21.4     3.155723     6.444346
21.5     3.080241     6.686939
21.6     2.968536     6.888089
21.7     2.819250     7.037907
21.8     2.630351     7.125746
21.9     2.398909     7.139895
22.0     2.121127     7.067363
22.1     1.793770     6.894497
22.2     1.421643     6.611565
22.3     1.043979     6.230671
22.4     0.763066     5.813235
22.5     0.643606     5.426428
22.6     0.631841     5.078509
22.7     0.669610     4.759338
22.8     0.733654     4.466239
22.9     0.818041     4.201875
23.0     0.922977     3.971392
23.1     1.050499     3.781185
23.2     1.202361     3.638018
23.3     1.378469     3.547970
23.4     1.575829     3.515300
23.5     1.788451     3.541641
23.6     2.008269     3.625807
23.7     2.226541     3.764142
23.8     2.435060     3.951122
23.9     2.626867     4.179938
24.0     2.796470     4.442955
24.1     2.939766     4.732036
24.2     3.053822     5.038753
24.3     3.136614     5.354518
24.4     3.186782     5.670654
24.5     3.203403     5.978423
24.6     3.185794     6.269010
24.7     3.133333     6.533469
24.8     3.045281     6.762630
24.9     2.920592     6.946953
25.0     2.757699     7.076313
25.1     2.554278     7.139728
25.2     2.307058     7.125047
25.3     2.012131     7.018883
25.4     1.667620     6.808029
25.5     1.285957     6.487285
25.6     0.928428     6.084124
25.7     0.704038     5.672705
25.8     0.631061     5.300723
25.9     0.641199     4.963702
26.0     0.689573     4.653609
26.1     0.760967     4.370111
26.2     0.852380     4.116951
26.3     0.964976     3.899814
26.4     1.100892     3.725330
26.5     1.261395     3.600154
26.6     1.445452     3.529849
26.7     1.648976     3.517816
26.8     1.865102     3.564691
26.9     2.085367     3.668363
27.0     2.301101     3.824449
27.1     2.504482     4.026913
27.2     2.689059     4.268613
27.3     2.849846     4.541707
27.4     2.983178     4.837937
27.5     3.086471     5.148807
27.6     3.157960     5.465693
27.7     3.196462     5.779895
27.8     3.201160     6.082652
27.9     3.171412     6.365111
28.0     3.106576     6.618261
28.1     3.005827     6.832822
28.2     2.867964     6.999076
28.3     2.691181     7.106633
28.4     2.472835     7.144135
28.5     2.209341     7.098972
28.6     1.896950     6.957499
28.7     1.536484     6.707798
28.8     1.152481     6.352286
28.9     0.830365     5.936909
29.0     0.664484     5.537590
29.1     0.628321     5.179259
29.2     0.654987     4.852126
29.3     0.712266     4.551112
29.4     0.790705     4.277691
29.5     0.889313     4.036440
29.6     1.009846     3.833471
29.7     1.154325     3.675538
29.8     1.323349     3.569046
29.9     1.514852     3.518907
30.0     1.723684     3.527590
30.1     1.942262     3.594736
30.2     2.161900     3.717369
30.3     2.374131     3.890460
30.4     2.571582     4.107528
30.5     2.748319     4.361146
30.6     2.899842     4.643302
30.7     3.022895     4.945637
30.8     3.115210     5.259601
30.9     3.175253     5.576539
31.0     3.201990     5.887732
31.1     3.194688     6.184391
31.2     3.152724     6.457616
31.3     3.075413     6.698320
31.4     2.961823     6.897089
31.5     2.810566     7.044001
31.6     2.619570     7.128364
31.7     2.385854     7.138403
31.8     2.105594     7.061066
31.9     1.775693     6.882728
32.0     1.401845     6.594165
32.1     1.026208     6.209463
32.2     0.753134     5.792393
32.3     0.641046     5.407782
32.4     0.632887     5.061534
32.5     0.672344     4.743699
32.6     0.737491     4.451977
32.7     0.822898     4.189208
32.8     0.928935     3.960624
32.9     1.057670     3.772661
33.0     1.210797     3.632075
33.1     1.388092     3.544880
33.2     1.586401     3.515214
33.3     1.799599     3.544566
33.4     2.019550     3.631611
33.5     2.237513     3.772583
33.6     2.445334     3.961878
33.7     2.636126     4.192635
33.8     2.804471     4.457186
33.9     2.946333     4.747376
34.0     3.058831     5.054765
34.1     3.139983     5.370760
34.2     3.188454     5.686681
34.3     3.203338     5.993786
34.4     3.183961     6.283254
34.5     3.129699     6.546132
34.6     3.039800     6.773234
34.7     2.913200     6.954996
34.8     2.748297     7.081257
34.9     2.542722     7.140982
35.0     2.293158     7.121953
35.1     1.995695     7.010735
35.2     1.648753     6.794247
35.3     1.266221     6.468180
35.4     0.912907     6.062574
35.5     0.697117     5.652629
35.6     0.630118     5.282733
35.7     0.642961     4.947209
35.8     0.692723     4.638436
35.9     0.765158     4.356377
36.0     0.857610     4.104911
36.1     0.971348     3.889791
36.2     1.108506     3.717673
36.3     1.270263     3.595185
36.4     1.455443     3.527801
36.5     1.659797     3.518792
36.6     1.876348     3.568647
36.7     2.096588     3.675123
36.8     2.311869     3.833740
36.9     2.514432     4.038394
37.0     2.697901     4.281895
37.1     2.857362     4.556376
37.2     2.989211     4.853562
37.3     3.090913     5.164951
37.4     3.160739     5.481911
37.5     3.197529     5.795741
37.6     3.200479     6.097675
37.7     3.168952     6.378854
37.8     3.102301     6.630258
37.9     2.999686     6.842587
38.0     2.859881     7.006097
38.1     2.681044     7.110355
38.2     2.460481     7.143943
38.3     2.194569     7.094188
38.4     1.879614     6.947424
38.5     1.516992     6.692022
38.6     1.133456     6.331834
38.7     0.817744     5.915570
38.8     0.660144     5.518312
38.9     0.628583     5.161843
39.0     0.657315     4.836095
39.1     0.715795     4.536420
39.2     0.795252     4.264518
39.3     0.894929     4.025068
39.4     1.016645     3.824238
39.5     1.162384     3.668790
39.6     1.332634     3.565080
39.7     1.525174     3.517915
39.8     1.734704     3.529622
39.9     1.953551     3.599699
40.0     2.173008     3.725051
